Time (s),Error (km)
0.0,0.0
160.3336440032764,0.25744428042133055
639.6893358595473,5.471031915853417
1433.1482374984744,49.7919648482666
2532.568386867794,578.0967579121663
3926.6682454818097,3136.0991290020697
5601.142462272616,31420.791489370615
7538.8086658502825,21096.91615187421
9719.783778884792,91739.53326444012
12121.688045385534,100630.84273312273
14719.874677282425,139615.25611261366
17487.682763823923,176048.17712798636
20396.710848599367,213009.13533587995
23417.108366914985,255536.72005368123
26517.881952981978,294820.18765380245
29667.21347379022,336667.7528321029
32832.78652620977,380476.0082922994
35982.11804701802,418066.02819985326
39082.89163308501,464610.3131252619
42103.28915140063,498269.0718561889
45012.31723617607,542221.8922432818
47780.125322717584,575713.1919790464
50378.31195461445,608194.2445616766
52780.216221115195,648230.3502611052
54961.19133414971,664147.0044541563
56898.85753772739,697818.5765503888
58573.33175451819,725401.3344973511
59967.431613132205,735471.4400915629
61066.85176250152,744515.7304888313
61860.31066414045,756219.2190666338
62339.66635599672,765282.6485415031
62500.0,768518.6359524941
62500.0,768518.6359524941
62660.33364400328,771806.4357468336
63139.68933585955,781618.9686549718
63933.14823749848,796035.5804962358
65032.568386867795,808849.1767399119
66426.66824548181,817725.3413519572
68101.14246227262,839561.942499244
70038.80866585029,876686.4539286181
72219.7837788848,895557.3097013414
74621.68804538553,928758.3334472453
77219.87467728242,968697.7292426386
79987.68276382392,995312.0514855356
82896.71084859937,1045242.4676039887
85917.10836691498,1072988.4141876656
89017.88195298197,1125463.4234976748
92167.21347379022,1156373.2689166914
95332.78652620976,1207074.9945738562
98482.11804701801,1241291.946035975
101582.891633085,1287910.3303460528
104603.28915140063,1322535.7625979648
107512.31723617608,1366639.6626691557
110280.12532271759,1395048.8833876988
112878.31195461444,1440575.4952277257
115280.2162211152,1458651.6139679258
117461.19133414971,1497618.9208790201
119398.8575377274,1524170.9714487654
121073.33175451819,1535510.3520949478
122467.43161313221,1556274.7966849515
123566.85176250152,1578499.0874603954
124360.31066414044,1592178.851844588
124839.66635599671,1598270.6928604296
125000.0,1599922.9908470253
125000.0,1599922.9908470253
125160.33364400327,1601398.5541765052
125639.68933585954,1604950.5629694248
126433.14823749848,1609638.8474836193
127532.56838686779,1619746.9578150676
128926.66824548181,1644289.3041974867
130601.14246227262,1674443.055151231
132538.8086658503,1689467.31429277
134719.7837788848,1718854.1344182643
137121.68804538553,1759215.0861625038
139719.87467728244,1780198.219508407
142487.68276382392,1830817.4796883257
145396.71084859938,1855071.5776172108
148417.108366915,1908712.15830222
151517.881952982,1935485.0251661206
154667.2134737902,1991162.5180236022
157832.78652620976,2018589.171779127
160982.118047018,2073953.3110285425
164082.891633085,2101276.169202733
167103.28915140062,2154259.5485389032
170012.31723617608,2179053.6174866306
172780.1253227176,2229490.2700474835
175378.31195461444,2249943.137297722
177780.2162211152,2291745.3949714634
179961.1913341497,2319212.4437707774
181898.8575377274,2335198.8133212775
183573.3317545182,2366372.681570261
184967.4316131322,2389739.4370486042
186066.85176250152,2398977.8181653274
186860.31066414044,2403728.5437474335
187339.6663559967,2407614.4588396526
187500.0,2409238.600410373
187500.0,2409238.600410373
187660.3336440033,2411052.207442295
188139.68933585956,2417659.980998275
188933.14823749848,2432025.6576943602
190032.5683868678,2454132.8499013954
191426.66824548182,2473497.23627894
193101.1424622726,2484591.4654150694
195038.8086658503,2512901.2670693635
197219.7837788848,2550535.092002467
199621.68804538553,2568558.700906214
202219.87467728244,2615152.869339416
204987.68276382392,2641910.645257416
207896.71084859938,2687844.395580527
210917.108366915,2720523.3604739048
214017.881952982,2768961.5592195764
217167.2134737902,2801398.411634253
220332.78652620976,2853577.035166181
223482.118047018,2883134.094185919
226582.891633085,2936649.3372174
229603.28915140062,2963332.097245413
232512.31723617608,3014311.5869506923
235280.1253227176,3039477.297697836
237878.31195461444,3081204.708837736
240280.2162211152,3112323.377851595
242461.1913341497,3132463.077599507
244398.8575377274,3169945.863225061
246073.3317545182,3190117.1409897227
247467.4316131322,3199123.993925692
248566.85176250152,3213035.48905961
249360.31066414044,3228044.3267372246
249839.6663559967,3237883.400595066
250000.0,3241114.698335991
250000.0,3241114.698335991
250160.3336440033,3244263.51581576
250639.68933585956,3252917.1951592406
251433.14823749848,3263732.372875934
252532.5683868678,3272020.3769087554
253926.66824548182,3282776.808012764
255601.1424622726,3311709.6784094363
257538.8086658503,3343816.0698118326
259719.7837788848,3359511.8371758545
262121.68804538553,3401004.1548048607
264719.8746772824,3431315.288462171
267487.68276382395,3466814.0621979577
270396.7108485994,3508556.3282645866
273417.10836691497,3544095.975102936
276517.881952982,3588379.8154449267
279667.2134737902,3627934.8464828995
282832.7865262098,3669292.189418275
285982.118047018,3713117.818118217
289082.89163308503,3749864.7499623494
292103.2891514006,3794295.672206774
295012.31723617605,3828543.290560033
297780.1253227176,3866397.1642607483
300378.3119546145,3903915.097431162
302780.2162211152,3925965.8347214027
304961.1913341497,3967614.6813165094
306898.8575377274,3986097.4780008593
308573.3317545182,4001548.0974011333
309967.4316131322,4027673.2029101932
311066.8517625015,4048114.442418092
311860.31066414044,4057965.3165732794
312339.66635599674,4061819.702001737
312500.0,4062864.310321499
312500.0,4062864.310321499
312660.33364400326,4063833.0470672264
313139.68933585956,4066597.338524684
313933.1482374985,4072599.4960005046
315032.5683868678,4087913.8415719653
316426.6682454818,4115628.2623558193
318101.1424622726,4139103.748943791
320038.80866585026,4152652.5813395097
322219.7837788848,4190248.487772609
324621.6880453855,4221796.066345144
327219.8746772824,4248873.635792797
329987.68276382395,4296173.7594995545
332896.7108485994,4321972.043729517
335917.10836691497,4374505.302646215
339017.881952982,4402813.2278602095
342167.2134737902,4455786.125414162
345332.7865262098,4487253.488365604
348482.118047018,4537224.427075542
351582.89163308503,4570822.8060391415
354603.2891514006,4617108.618069682
357512.31723617605,4648170.450780498
360280.1253227176,4693813.362520363
362878.3119546145,4715821.0595390955
365280.2162211152,4760987.230790402
367461.1913341497,4780368.091808179
369398.8575377274,4803502.840729693
371073.3317545182,4836397.645294498
372467.4316131322,4853358.146887329
373566.8517625015,4860114.486442198
374360.31066414044,4866795.973571829
374839.66635599674,4872940.397733239
375000.0,4875390.219711976
375000.0,4875390.219711976
375160.33364400326,4878026.372112748
375639.68933585956,4886847.366796469
376433.1482374985,4902987.405495337
377532.5683868678,4922448.209155684
378926.6682454818,4935448.363352514
380601.1424622726,4948570.35047332
382538.80866585026,4983830.579659015
384719.7837788848,5013245.955794882
387121.6880453855,5034991.058692796
389719.8746772824,5082768.297233166
392487.68276382395,5105070.626063145
395396.7108485994,5156969.94622922
398417.10836691497,5183251.592584074
401517.881952982,5237672.021617344
404667.2134737902,5265056.7037994
407832.7865262098,5320936.69115515
410982.118047018,5348173.534685988
414082.89163308503,5402856.5570948515
417103.2891514006,5428828.570536073
420012.31723617605,5480985.601869702
422780.1253227176,5503204.488563722
425378.3119546145,5550734.044754628
427780.2162211152,5573164.157068835
429961.1913341497,5601686.6281013265
431898.8575377274,5637391.942876022
433573.3317545182,5650999.447892356
434967.4316131322,5663447.670993517
436066.8517625015,5682512.385145543
436860.31066414044,5698679.961079909
437339.66635599674,5707651.274425038
437500.0,5710356.298735165
437500.0,5710356.298735165
437660.33364400326,5712881.892376176
438139.68933585956,5719272.486376221
438933.1482374985,5726279.891977923
440032.5683868678,5732984.717759711
441426.6682454818,5749288.831645171
443101.1424622726,5782074.389637817
445038.80866585026,5806038.501677937
447219.7837788848,5824797.873278447
449621.6880453855,5869943.888579413
452219.8746772824,5892466.809048898
454987.68276382395,5937346.935306395
457896.7108485994,5969273.789505733
460917.10836691497,6014664.967838735
464017.881952982,6049124.122148974
467167.2134737902,6098277.6816812735
470332.7865262098,6130452.134683187
473482.118047018,6182805.598741506
476582.89163308503,6211622.447471198
479603.2891514006,6263673.216250495
482512.31723617605,6289985.858721442
485280.1253227176,6336630.195001488
487878.3119546145,6364556.513121539
490280.2162211152,6395167.51641064
492461.1913341497,6433362.327042673
494398.8575377274,6447096.432583552
496073.3317545182,6469822.041148914
497467.4316131322,6497603.094095887
498566.8517625015,6513438.191028765
499360.31066414044,6519718.611993718
499839.66635599674,6522499.452378938
500000.0,6523444.812112785
500000.0,6523444.812112785
500160.33364400326,6524452.326590919
500639.68933585956,6528126.870134875
501433.1482374985,6537576.797992913
502532.5683868678,6557687.743248506
503926.6682454818,6584134.1613834845
505601.1424622726,6600224.289571707
507538.80866585026,6618021.26901048
509719.7837788848,6659592.4862323925
512121.6880453855,6682343.159763436
514719.8746772824,6718921.398933132
517487.68276382395,6757723.326125907
520396.7108485994,6791034.487106286
523417.10836691497,6836363.944422022
526517.8819529819,6872176.780999278
529667.2134737902,6916943.628023274
532832.7865262098,6957318.694606268
535982.1180470181,6997828.787302966
539082.891633085,7041144.932344668
542103.2891514007,7077615.346638682
545012.3172361761,7118393.17551228
547780.1253227176,7154845.502328093
550378.3119546145,7184235.725402301
552780.2162211152,7226307.9132780135
554961.1913341497,7242030.256732633
556898.8575377273,7273438.261740284
558573.3317545182,7302895.282450217
559967.4316131322,7314083.399778075
561066.8517625015,7322045.016598466
561860.3106641405,7332462.568917901
562339.6663559967,7340941.218039984
562500.0,7344051.343398578
562500.0,7344051.343398578
562660.3336440033,7347254.99910916
563139.6893358595,7357079.7290409375
563933.1482374985,7372286.043903961
565032.5683868678,7386726.961788924
566426.6682454818,7395892.316516489
568101.1424622727,7415313.8818839835
570038.8086658503,7452858.667043006
572219.7837788848,7473698.887329265
574621.6880453855,7503883.014143266
577219.8746772824,7546361.1844656
579987.6827638239,7570946.966344186
582896.7108485993,7622312.851669287
585917.108366915,7648615.334696898
589017.8819529819,7702517.524792593
592167.2134737902,7731553.694329775
595332.7865262098,7784336.134880143
598482.1180470181,7816031.010773702
601582.891633085,7865242.780539082
604603.2891514007,7897080.387434499
607512.3172361761,7943780.531478915
610280.1253227176,7969836.001353937
612878.3119546145,8016796.6264342405
615280.2162211152,8034899.982235169
617461.1913341497,8071874.909218481
619398.8575377273,8100941.968655379
621073.3317545182,8111995.611018429
622467.4316131322,8130711.1164987385
623566.8517625015,8152709.957772562
624360.3106641405,8167315.280354038
624839.6663559967,8174155.111367445
625000.0,8176049.274522733
625000.0,8176049.274522733
625160.3336440033,8177751.128614222
625639.6893358595,8181827.658074798
626433.1482374985,8186655.483061324
627532.5683868678,8195491.889748084
628926.6682454818,8218314.157305093
630601.1424622727,8249821.718236591
632538.8086658503,8266353.807430808
634719.7837788848,8292933.1488696
637121.6880453855,8335265.753037102
639719.8746772824,8355557.538442743
642487.6827638239,8405771.720911821
645396.7108485993,8430904.310370434
648417.108366915,8483443.764105879
651517.8819529819,8511098.643206758
654667.2134737902,8566164.27860309
657832.7865262098,8593672.90604324
660982.1180470181,8649338.652368348
664082.891633085,8675938.032864848
667103.2891514007,8729723.985331919
670012.3172361761,8753804.459838355
672780.1253227176,8804346.695856158
675378.3119546145,8825655.655026494
677780.2162211152,8865284.293395983
679961.1913341497,8895491.623587182
681898.8575377273,8910096.718664536
683573.3317545182,8939747.689285412
684967.4316131322,8964689.474169528
686066.8517625015,8975248.72197897
686860.3106641405,8979939.922013361
687339.6663559967,8983334.82953066
687500.0,8984738.552840816
687500.0,8984738.552840816
687660.3336440033,8986312.95595161
688139.6893358595,8992160.835781723
688933.1482374985,9005529.026476335
690032.5683868678,9027716.485542126
691426.6682454818,9049040.523421727
693101.1424622727,9060564.728293782
695038.8086658503,9086293.416065168
697219.7837788848,9125685.956687195
699621.6880453855,9143852.096251277
702219.8746772824,9188768.884666897
704987.6827638239,9217929.095283112
707896.7108485993,9261110.497089295
710917.108366915,9296561.268020678
714017.8819529819,9342245.777619936
717167.2134737902,9377212.744821245
720332.7865262098,9427089.543835545
723482.1180470181,9458579.75583573
726582.891633085,9510396.516058369
729603.2891514007,9538608.98838426
732512.3172361761,9587889.828760663
735280.1253227176,9615128.960055528
737878.3119546145,9654179.058531055
740280.2162211152,9688151.898291364
742461.1913341497,9706421.837379312
744398.8575377273,9743249.023399184
746073.3317545182,9765725.568407673
747467.4316131322,9774552.14801314
748566.8517625015,9786837.340856489
749360.3106641405,9800992.891419262
749839.6663559967,9810753.354559842
750000.0,9814041.949635837
750000.0,9814041.949635837
750160.3336440033,9817288.06910391
750639.6893358595,9826438.83405009
751433.1482374985,9838446.290017437
752532.5683868678,9847860.411723342
753926.6682454818,9857580.748460662
755601.1424622727,9884540.260051863
757538.8086658503,9918612.375062998
759719.7837788848,9934615.346346239
762121.6880453855,9973896.399653714
764719.8746772824,10007106.81916822
767487.6827638239,10039632.042180574
770396.7108485993,10084188.896584647
773417.108366915,10116934.249268154
776517.8819529819,10164031.183174528
779667.2134737902,10200640.164858244
782832.7865262098,10244983.841845976
785982.1180470181,10285781.589665089
789082.891633085,10325488.239109859
792103.2891514007,10366955.281868942
795012.3172361761,10404161.585626485
797780.1253227176,10439003.308101153
800378.3119546145,10479275.977239218
802780.2162211152,10499509.87440533
804961.1913341497,10540952.810637914
806898.8575377273,10561664.711011076
808573.3317545182,10575422.510606399
809967.4316131322,10600208.405364187
811066.8517625015,10621535.081522169
811860.3106641405,10632594.351974733
812339.6663559967,10637039.217215441
812500.0,10638222.038620237
812500.0,10638222.038620237
812660.3336440033,10639292.110419055
813139.6893358595,10642117.071930777
813933.1482374985,10647452.743858382
815032.5683868678,10661120.326266449
816426.6682454818,10688287.775146551
818101.1424622727,10713996.746603858
820038.8086658503,10727371.088617617
822219.7837788848,10762763.007599046
824621.6880453855,10797146.885593973
827219.8746772824,10821857.14116831
829987.6827638239,10870789.616348919
832896.7108485993,10895405.969188508
835917.108366915,10948955.466174955
839017.8819529819,10976084.149036357
842167.2134737902,11030523.0794142
845332.7865262098,11060123.888478566
848482.1180470181,11112270.597967036
851582.891633085,11143440.41878782
854603.2891514007,11192218.780993005
857512.3172361761,11220857.248106772
860280.1253227176,11268521.525311098
862878.3119546145,11289367.05470824
865280.2162211152,11334148.079185894
867461.1913341497,11355634.644793699
869398.8575377273,11376330.52005007
871073.3317545182,11409231.088250428
872467.4316131322,11428183.229067724
873566.8517625015,11435322.894992184
874360.3106641405,11441180.102910979
874839.6663559967,11446586.190074606
875000.0,11448787.111589873
875000.0,11448787.111589873
875160.3336440033,11451185.12934101
875639.6893358595,11459422.465816298
876433.1482374985,11475284.547936995
877532.5683868678,11495857.76510233
878926.6682454818,11510622.73490625
880601.1424622727,11522611.174396003
882538.8086658503,11556134.502757108
884719.7837788848,11588230.227025144
887121.6880453855,11608242.955714853
889719.8746772824,11656342.55656697
892487.6827638239,11679322.521831283
895396.7108485993,11730003.462574473
898417.108366915,11757623.50018488
901517.8819529819,11810820.722173456
904667.2134737902,11839078.982198121
907832.7865262098,11894503.588412885
910982.1180470181,11921726.134870851
914082.891633085,11976752.384493407
917103.2891514007,12002214.969465453
920012.3172361761,12054712.297024367
922780.1253227176,12077119.771832049
925378.3119546145,12123473.277582087
927780.2162211152,12148205.945763746
929961.1913341497,12174018.16779118
931898.8575377273,12210823.418448122
933573.3317545182,12226090.669033213
934967.4316131322,12237118.578935817
936066.8517625015,12254765.658123305
936860.3106641405,12270856.691098
937339.6663559967,12280244.444056714
937500.0,12283149.56433307
937500.0,12283149.56433307
937660.3336440033,12285897.232639221
938139.6893358595,12293020.026885344
938933.1482374985,12301068.470965903
940032.5683868678,12307866.727497268
941426.6682454818,12322278.49678236
943101.1424622727,12354382.68245286
945038.8086658503,12380878.478476923
947219.7837788848,12398123.018618874
949621.6880453855,12442796.48605463
952219.8746772824,12467199.120898154
954987.6827638239,12509502.121464673
957896.7108485993,12544236.937806971
960917.108366915,12586752.943640633
964017.8819529819,12624021.835131126
967167.2134737902,12670490.03977239
970332.7865262098,12705103.672368905
973482.1180470181,12755283.765877461
976582.891633085,12786007.05900959
979603.2891514007,12836249.73562776
982512.3172361761,12864471.40828405
985280.1253227176,12908825.219949272
987878.3119546145,12939490.764303522
990280.2162211152,12967301.930922454
992461.1913341497,13007094.475912554
994398.8575377273,13021726.313716285
996073.3317545182,13042155.593171548
997467.4316131322,13069893.38614564
998566.8517625015,13087275.553387986
999360.3106641405,13094479.316737285
999839.6663559967,13097416.36750179
1000000.0,13098331.75440383
