Time (s),Error (km)
0.0,0.0
160.3336440032764,0.008785038930857003
639.6893358595473,0.034934229653403384
1433.1482374984744,0.07781439530628488
2532.568386867794,0.13634804950992457
3926.6682454818097,0.20911274919436554
5601.142462272616,0.29483454515696905
7538.8086658502825,0.3937456023189403
9719.783778884792,0.5102702454232045
12121.688045385534,0.6567265036087083
14719.874677282425,0.8557195755480879
17487.682763823923,1.137548535521129
20396.710848599367,1.5323596297105018
23417.108366914985,2.062127260559571
26517.881952981978,2.7363652429286405
29667.21347379022,3.5509448105066657
32832.78652620977,4.48852680162496
35982.11804701802,5.520274719058534
39082.89163308501,6.608935063698893
42103.28915140063,7.71305024577215
45012.31723617607,8.791647302472091
47780.125322717584,9.808546091909632
50378.31195461445,10.735526488720248
52780.216221115195,11.553916260799713
54961.19133414971,12.254567039729713
56898.85753772739,12.83652945474318
58573.33175451819,13.304927824553923
59967.431613132205,13.66855503006746
61066.85176250152,13.937602522968035
61860.31066414045,14.121779154482924
62339.66635599672,14.228916870742724
62500.0,14.264051989499231
62500.0,14.264051989499231
62660.33364400328,14.298834772543547
63139.68933585955,14.40071733657307
63933.14823749848,14.562377032209334
65032.568386867795,14.771898713339036
66426.66824548181,15.01333686713314
68101.14246227262,15.267714065271628
70038.80866585029,15.514567338533427
72219.7837788848,15.734060581423213
74621.68804538553,15.909529878437423
77219.87467728242,16.030153176016213
79987.68276382392,16.093291029059554
82896.71084859937,16.105990951584158
85917.10836691498,16.085221081021345
89017.88195298197,16.05659029440893
92167.21347379022,16.051568935071927
95332.78652620976,16.103486112743923
98482.11804701801,16.242817198212887
101582.891633085,16.492486885951617
104603.28915140063,16.86406225944876
107512.31723617608,17.355672187040962
110280.12532271759,17.952150599356123
112878.31195461444,18.627315121102093
115280.2162211152,19.34771739075761
117461.19133414971,20.076904902809197
119398.8575377274,20.779293893807186
121073.33175451819,21.423056018610612
122467.43161313221,21.98179570396722
123566.85176250152,22.43511205180307
124360.31066414044,22.76834067774499
124839.66635599671,22.971851513216823
125000.0,23.040262520755817
125000.0,23.040262520755817
125160.33364400327,23.108836669112765
125639.68933585954,23.314780844248318
126433.14823749848,23.658436070101413
127532.56838686779,24.139318362584003
128926.66824548181,24.75464787905582
130601.14246227262,25.497533094554697
132538.8086658503,26.35510213605672
134719.7837788848,27.306986047402706
137121.68804538553,28.32463090673982
139719.87467728244,29.371891584661345
142487.68276382392,30.407194383446413
145396.71084859938,31.38723573629293
148417.108366915,32.2717700542412
151517.881952982,33.02864410979754
154667.2134737902,33.63801897205313
157832.78652620976,34.09479746549015
160982.118047018,34.40866399831558
164082.891633085,34.60172637287629
167103.28915140062,34.70432440304992
170012.31723617608,34.749944525199645
172780.1253227176,34.77025969350828
175378.31195461444,34.791132776904426
177780.2162211152,34.830093325754554
179961.1913341497,34.895442532740056
181898.8575377274,34.98684006502213
183573.3317545182,35.09701526089092
184967.4316131322,35.21414229054718
186066.85176250152,35.32441637462672
186860.31066414044,35.41445396231391
187339.6663559967,35.47326843706419
187500.0,35.49370008922775
187500.0,35.49370008922775
187660.3336440033,35.51451694062528
188139.68933585956,35.57907688899357
188933.14823749848,35.69373562352309
190032.5683868678,35.86912303769937
191426.66824548182,36.12001433334096
193101.1424622726,36.46480900296369
195038.8086658503,36.92435196465053
197219.7837788848,37.519883133873996
199621.68804538553,38.27005743680869
202219.87467728244,39.18724634849928
204987.68276382392,40.27366766750341
207896.71084859938,41.518187197640515
210917.108366915,42.89474612110092
214017.881952982,44.36317090327334
217167.2134737902,45.87260967029161
220332.78652620976,47.36714817164427
223482.118047018,48.7925286596901
226582.891633085,50.10256072116786
229603.28915140062,51.26390189432631
232512.31723617608,52.258358766948334
235280.1253227176,53.0825428253212
237878.31195461444,53.74535992814171
240280.2162211152,54.26422351037078
242461.1913341497,54.660969267669174
244398.8575377274,54.958265606327
246073.3317545182,55.17698337738717
247467.4316131322,55.334649960489436
248566.85176250152,55.44485738357193
249360.31066414044,55.51735339598742
249839.6663559967,55.5585042101753
250000.0,55.571845593895716
250000.0,55.571845593895716
250160.3336440033,55.58498143258969
250639.68933585956,55.62306629754396
251433.14823749848,55.68242182414716
252532.5683868678,55.75786137729866
253926.66824548182,55.844023469555985
255601.1424622726,55.93705080413706
257538.8086658503,56.03639385313919
259719.7837788848,56.14644525380637
262121.68804538553,56.2776741386041
264719.8746772824,56.446948807439846
267487.68276382395,56.67681463463888
270396.7108485994,56.99361818999201
273417.10836691497,57.42452461726748
276517.881952982,57.993669099280766
279667.2134737902,58.717921355411754
282832.7865262098,59.60299869936117
285982.118047018,60.640818568600814
289082.89163308503,61.808889860490154
292103.2891514006,63.07211565702919
295012.31723617605,64.38673279362291
297780.1253227176,65.70550765569921
300378.3119546145,66.98300797135028
302780.2162211152,68.17987686084038
304961.1913341497,69.26544941883677
306898.8575377274,70.21856602647293
308573.3317545182,71.02685962654465
309967.4316131322,71.68502671216623
311066.8517625015,72.19263256625531
311860.31066414044,72.5519113285694
312339.66635599674,72.76587414006484
312500.0,72.83689906592576
312500.0,72.83689906592576
312660.33364400326,72.90764708549952
313139.68933585956,73.1174799263894
313933.1482374985,73.45906527910981
315032.5683868678,73.91991491853301
316426.6682454818,74.4821868219109
318101.1424622726,75.12277683086278
320038.80866585026,75.8139755962892
322219.7837788848,76.52490929550716
324621.6880453855,77.22383567781965
327219.8746772824,77.88114447973582
329987.68276382395,78.47267032549092
332896.7108485994,78.98274500021067
335917.10836691497,79.40637239657956
339017.881952982,79.75003393523569
342167.2134737902,80.03088655654739
345332.7865262098,80.27441116275257
348482.118047018,80.51082133188659
351582.89163308503,80.77071806052908
354603.2891514006,81.08059330489554
357512.31723617605,81.45885698042498
360280.1253227176,81.91305129047294
362878.3119546145,82.43875428310568
365280.2162211152,83.02034119564132
367461.1913341497,83.63334973912879
369398.8575377274,84.24784363563559
371073.3317545182,84.83202303308457
372467.4316131322,85.35542559812716
373566.8517625015,85.79132230759609
374360.31066414044,86.11821306875001
374839.66635599674,86.32056388037643
375000.0,86.38904844113225
375000.0,86.38904844113225
375160.33364400326,86.45793095885938
375639.68933585956,86.66621721972179
376433.1482374985,87.01853661641906
377532.5683868678,87.52163063208977
378926.6682454818,88.1828450815788
380601.1424622726,89.00798911720014
382538.80866585026,89.99866690201128
384719.7837788848,91.14937402200421
387121.6880453855,92.44487129444833
389719.8746772824,93.85851710460503
392487.68276382395,95.35224704989827
395396.7108485994,96.87865600400751
398417.10836691497,98.38516926129148
401517.881952982,99.81970879498002
404667.2134737902,101.13676857896623
407832.7865262098,102.30261479050495
410982.118047018,103.29851409904778
414082.89163308503,104.12141059977961
417103.2891514006,104.78212216058374
420012.31723617605,105.30168421583781
422780.1253227176,105.70676906280264
425378.3119546145,106.02512196108863
427780.2162211152,106.28175712234591
429961.1913341497,106.49636252865923
431898.8575377274,106.68206601488913
433573.3317545182,106.84546750613694
434967.4316131322,106.98766635211302
436066.8517625015,107.10591675205664
436860.31066414044,107.19552689254316
437339.66635599674,107.25166314723973
437500.0,107.27080226777414
437500.0,107.27080226777414
437660.33364400326,107.290130653984
438139.68933585956,107.34909007308639
438933.1482374985,107.45080098718962
440032.5683868678,107.60107369848215
441426.6682454818,107.80914799951952
443101.1424622726,108.08838354077368
445038.80866585026,108.45657410470761
447219.7837788848,108.93551963529389
449621.6880453855,109.5495251714258
452219.8746772824,110.32264531536724
454987.68276382395,111.27477903967818
457896.7108485994,112.41712118707092
460917.10836691497,113.747885902304
464017.881952982,115.2494541080907
467167.2134737902,116.88797606716993
470332.7865262098,118.61591697467351
473482.118047018,120.37721535025646
476582.89163308503,122.11394780875234
479603.2891514006,123.77298473511756
482512.31723617605,125.31123080733057
485280.1253227176,126.69858101557253
487878.3119546145,127.9184298586395
490280.2162211152,128.96617170320883
492461.1913341497,129.8464577126633
494398.8575377274,130.57000880022062
496073.3317545182,131.1506111577155
497467.4316131322,131.6026649811361
498566.8517625015,131.93941819558367
499360.31066414044,132.17184389876937
499839.66635599674,132.30802396614982
500000.0,132.35286946465402
500000.0,132.35286946465402
500160.33364400326,132.39736475689708
500639.68933585956,132.52832118162158
501433.1482374985,132.7383600510843
502532.5683868678,133.0158924356986
503926.6682454818,133.3462058469391
505601.1424622726,133.71299550080403
507538.80866585026,134.10028174560742
509719.7837788848,134.49457630361672
512121.6880453855,134.88707763145118
514719.8746772824,135.27560941383993
517487.68276382395,135.66597579012807
520396.7108485994,136.0723929072664
523417.10836691497,136.5166767724223
526517.8819529819,137.0259581468939
529667.2134737902,137.62891392513566
532832.7865262098,138.35087975883437
535982.1180470181,139.2086660267821
539082.891633085,140.2062383099581
542103.2891514007,141.33241239273636
545012.3172361761,142.56124795140641
547780.1253227176,143.85505261996892
550378.3119546145,145.16916044066585
552780.2162211152,146.45724433671273
554961.1913341497,147.67597984616737
556898.8575377273,148.78828557326534
558573.3317545182,149.76489251354585
559967.4316131322,150.58443356600597
561066.8517625015,151.23249506838357
561860.3106641405,151.7001371398684
562339.6663559967,151.9823292368635
562500.0,152.07663117363552
562500.0,152.07663117363552
562660.3336440033,152.17088218404865
563139.6893358595,152.45231490513743
563933.1482374985,152.91670770879296
565032.5683868678,153.5562135298924
566426.6682454818,154.35834445738269
568101.1424622727,155.30494183939155
570038.8086658503,156.37148389832674
572219.7837788848,157.52709757820728
574621.6880453855,158.7355601870914
577219.8746772824,159.95739441836633
579987.6827638239,161.15290325861062
582896.7108485993,162.28573974756569
585917.108366915,163.32644386283468
589017.8819529819,164.2553587702007
592167.2134737902,165.0644525893444
595332.7865262098,165.757749199527
598482.1180470181,166.35024796666104
601582.891633085,166.86537368871754
604603.2891514007,167.33118557466395
607512.3172361761,167.77581947742212
610280.1253227176,168.2228919036892
612878.3119546145,168.68772684083825
615280.2162211152,169.1751519699408
617461.1913341497,169.67923804986594
619398.8575377273,170.1848586541517
621073.3317545182,170.67052607312232
622467.4316131322,171.11177039414855
623566.8517625015,171.48438990230508
624360.3106641405,171.7671306133507
624839.6663559967,171.94362402365581
625000.0,172.00361679378938
625000.0,172.00361679378938
625160.3336440033,172.06409169112493
625639.6893358595,172.24777592406193
626433.1482374985,172.5613225741114
627532.5683868678,173.0153419018694
628926.6682454818,173.62349224384337
630601.1424622727,174.4008898283947
632538.8086658503,175.3616808761314
634719.7837788848,176.51580052191306
637121.6880453855,177.86524640396064
639719.8746772824,179.40054596435334
642487.6827638239,181.0983502977228
645396.7108485993,182.92107414990855
648417.108366915,184.8191227503298
651517.8819529819,186.73556510984722
654667.2134737902,188.61237123605108
657832.7865262098,190.396839934722
660982.1180470181,192.04682219631803
664082.891633085,193.53378564793323
667103.2891514007,194.8434484168619
670012.3172361761,195.97434142949868
672780.1253227176,196.93501812251876
675378.3119546145,197.74068217596255
677780.2162211152,198.40985672105583
679961.1913341497,198.9615102101633
681898.8575377273,199.41287834067762
683573.3317545182,199.7780908692344
684967.4316131322,200.06760241594318
686066.8517625015,200.28832121526864
686860.3106641405,200.44423780676073
687339.6663559967,200.5372983388099
687500.0,200.56825907004142
687500.0,200.56825907004142
687660.3336440033,200.59914364123333
688139.6893358595,200.69106845338263
688933.1482374985,200.8421237136186
690032.5683868678,201.05002883998574
691426.6682454818,201.3134069012857
693101.1424622727,201.63338730456636
695038.8086658503,202.0153085699489
697219.7837788848,202.47017877958078
699621.6880453855,203.01543590231856
702219.8746772824,203.6744826658477
704987.6827638239,204.4745385927797
707896.7108485993,205.44263752182079
710917.108366915,206.60013708649717
714017.8819529819,207.95677560519087
717167.2134737902,209.5058264107487
720332.7865262098,211.22192411207715
723482.1180470181,213.062502302141
726582.891633085,214.97266960696322
729603.2891514007,216.89224642947624
732512.3172361761,218.76309676477172
735280.1253227176,220.53503878720224
737878.3119546145,222.1693335326376
740280.2162211152,223.63962887005076
742461.1913341497,224.93089973079785
744398.8575377273,226.0372077198861
746073.3317545182,226.9590464383262
747467.4316131322,227.70080937117348
748566.8517625015,228.26865810754737
749360.3106641405,228.66888067503703
749839.6663559967,228.90671901164362
750000.0,228.98560224777822
750000.0,228.98560224777822
750160.3336440033,229.06414939891968
750639.6893358595,229.29697473537573
751433.1482374985,229.67571227398597
752532.5683868678,230.18671974380268
753926.6682454818,230.8116063751623
755601.1424622727,231.5280849080115
757538.8086658503,232.3111868882211
759719.7837788848,233.1348297805594
762121.6880453855,233.9736794986733
764719.8746772824,234.80523128303554
767487.6827638239,235.61202369612428
770396.7108485993,236.38385496317082
773417.108366915,237.11973340091322
776517.8819529819,237.82906984333857
779667.2134737902,238.53143009649978
782832.7865262098,239.2542162248995
785982.1180470181,240.0280941954656
789082.891633085,240.88077211189332
792103.2891514007,241.83052779863638
795012.3172361761,242.8812386036938
797780.1253227176,244.0203150029594
800378.3119546145,245.2199998248708
802780.2162211152,246.4414144107867
804961.1913341497,247.64000543775498
806898.8575377273,248.77091790699396
808573.3317545182,249.7932044278487
809967.4316131322,250.67239317229237
811066.8517625015,251.38149128058396
811860.3106641405,251.9008418989138
812339.6663559967,252.21736556906487
812500.0,252.32366768483163
812500.0,252.32366768483163
812660.3336440033,252.43017709552194
813139.6893358595,252.74979282474484
813933.1482374985,253.2823956970217
815032.5683868678,254.02655471317848
816426.6682454818,254.97783178101778
818101.1424622727,256.126755385061
820038.8086658503,257.45686892930337
822219.7837788848,258.94337592317993
824621.6880453855,260.55290909305336
827219.8746772824,262.2447742312871
829987.6827638239,263.97366081995517
832896.7108485993,265.6933762737291
835917.108366915,267.3608357210239
839017.8819529819,268.93949358526555
842167.2134737902,270.4016731490094
845332.7865262098,271.7296800725663
848482.1180470181,272.91591717827225
851582.891633085,273.9622781078476
854603.2891514007,274.87891569484026
857512.3172361761,275.6822845800028
860280.1253227176,276.39237580938635
862878.3119546145,277.02933980523375
865280.2162211152,277.61005732269206
867461.1913341497,278.1454098285366
869398.8575377273,278.63887689969545
871073.3317545182,279.0867069748112
872467.4316131322,279.47946413163265
873566.8517625015,279.8044452263577
874360.3106641405,280.0483690079863
874839.6663559967,280.19983337695624
875000.0,280.2512127535512
875000.0,280.2512127535512
875160.3336440033,280.3029598142583
875639.6893358595,280.45990831962376
876433.1482374985,280.727331485002
877532.5683868678,281.1144452165977
878926.6682454818,281.6347794540984
880601.1424622727,282.30616901391045
882538.8086658503,283.1498940555423
884719.7837788848,284.18852239150846
887121.6880453855,285.4422291871221
889719.8746772824,286.92382843420853
892487.6827638239,288.6333766028197
895396.7108485993,290.5537707342538
898417.108366915,292.64893277350114
901517.8819529819,294.86569593573597
904667.2134737902,297.1394253128891
907832.7865262098,299.4021218243019
910982.1180470181,301.5908771642153
914082.891633085,303.6545090220481
917103.2891514007,305.5570099836281
920012.3172361761,307.27765318953647
922780.1253227176,308.80862454620427
925378.3119546145,310.15149334384114
927780.2162211152,311.3136812653642
929961.1913341497,312.30559566576835
931898.8575377273,313.13859791456025
933573.3317545182,313.8236840803522
934967.4316131322,314.37067486175187
936066.8517625015,314.78775387310117
936860.3106641405,315.08125354238393
937339.6663559967,315.25561543314296
937500.0,315.3134498894855
937500.0,315.3134498894855
937660.3336440033,315.37104390098057
938139.6893358595,315.5418192242577
938933.1482374985,315.8199456591916
940032.5683868678,316.1963384051258
941426.6682454818,316.65960404133557
943101.1424622727,317.1973628738634
945038.8086658503,317.79794581772546
947219.7837788848,318.45244073517483
949621.6880453855,319.1569795400994
952219.8746772824,319.91497532965747
954987.6827638239,320.73874656746614
957896.7108485993,321.64970893552965
960917.108366915,322.67628497588004
964017.8819529819,323.8490942340758
967167.2134737902,325.1938851105979
970332.7865262098,326.72376077890283
973482.1180470181,328.4329858938053
976582.891633085,330.2944954729165
979603.2891514007,332.2620858081565
982512.3172361761,334.2766369894086
985280.1253227176,336.2743981396383
987878.3119546145,338.1949546545702
990280.2162211152,339.9870388990901
992461.1913341497,341.61140862083465
994398.8575377273,343.0410335938331
996073.3317545182,344.2594316549503
997467.4316131322,345.258119590098
998566.8517625015,346.03394796752843
999360.3106641405,346.58678152619336
999839.6663559967,346.91771976399764
1000000.0,347.02788311681263
