Time (s),Error (km)
0.0,0.0
160.3336440032764,0.00878503893647434
639.6893358595473,0.034934237895387965
1433.1482374984744,0.07781470238257195
2532.568386867794,0.1363516549889375
3926.6682454818097,0.2091361417897239
5601.142462272616,0.2949396481586538
7538.8086658502825,0.39411199765550387
9719.783778884792,0.5113242320710134
12121.688045385534,0.659309242064651
14719.874677282425,0.8612000224156688
17487.682763823923,1.1477675994323107
20396.710848599367,1.549435684849646
23417.108366914985,2.088235242480697
26517.881952981978,2.773474556734594
29667.21347379022,3.600442860190505
32832.78652620977,4.550747057134437
35982.11804701802,5.594043164741365
39082.89163308501,6.6912812989595425
42103.28915140063,7.799203780086959
45012.31723617607,8.87537141554157
47780.125322717584,9.882773991391101
50378.31195461445,10.793186386666969
52780.216221115195,11.588788606486759
54961.19133414971,12.262019875344256
56898.85753772739,12.814020741491529
58573.33175451819,13.252227636495167
59967.431613132205,13.587702824185204
61066.85176250152,13.83265747748168
61860.31066414045,13.9984373920338
62339.66635599672,14.094061394068166
62500.0,14.125279422446136
62500.0,14.125279422446136
62660.33364400328,14.156112369198278
63139.68933585955,14.245992808628014
63933.14823749848,14.38716320989118
65032.568386867795,14.567061751510169
66426.66824548181,14.769006127180452
68101.14246227262,14.973367916159145
70038.80866585029,15.15934600709769
72219.7837788848,15.307340290411368
74621.68804538553,15.401755352658332
77219.87467728242,15.433867398306562
79987.68276382392,15.404230463798246
82896.71084859937,15.324049351866606
85917.10836691498,15.215048355838796
89017.88195298197,15.10760511598108
92167.21347379022,15.037236893387647
95332.78652620976,15.039851497458063
98482.11804701801,15.146465374788908
101582.891633085,15.378317525145693
104603.28915140063,15.743387934836445
107512.31723617608,16.235119329042856
110280.12532271759,16.833599058862205
112878.31195461444,17.508774906759253
115280.2162211152,18.224783100077886
117461.19133414971,18.944354138984046
119398.8575377274,19.632480724973135
121073.33175451819,20.258902830824344
122467.43161313221,20.79932872040526
123566.85176250152,21.235581803764266
124360.31066414044,21.555015424451312
124839.66635599671,21.749580818844763
125000.0,21.814896175423396
125000.0,21.814896175423396
125160.33364400327,21.880322537404734
125639.68933585954,22.076543657650692
126433.14823749848,22.403072064181423
127532.56838686779,22.8580843649183
128926.66824548181,23.43703217212278
130601.14246227262,24.130973840253226
132538.8086658503,24.92493706865162
134719.7837788848,25.79671927636179
137121.68804538553,26.71657870761333
139719.87467728244,27.64821459577743
142487.68276382392,28.551243668475127
145396.71084859938,29.38505063848003
148417.108366915,30.113491781690605
151517.881952982,30.70957863881472
154667.2134737902,31.159116999200684
157832.78652620976,31.46242092233622
160982.118047018,31.63365811867731
164082.891633085,31.697973852976027
167103.28915140062,31.687076439029248
170012.31723617608,31.634263824894123
172780.1253227176,31.569858545894945
175378.31195461444,31.517762778161515
177780.2162211152,31.49348753069348
179961.1913341497,31.503679504608904
181898.8575377274,31.54693132483203
183573.3317545182,31.615521150377365
184967.4316131322,31.69767556470904
186066.85176250152,31.77996439167457
186860.31066414044,31.849511064535303
187339.6663559967,31.895807346995905
187500.0,31.91202670404342
187500.0,31.91202670404342
187660.3336440033,31.928618094272384
188139.68933585956,31.980463500801697
188933.14823749848,32.07379067949845
190032.5683868678,32.21897658283706
191426.66824548182,32.43037720749958
193101.1424622726,32.72578439558186
195038.8086658503,33.12527187866339
197219.7837788848,33.6492360140027
199621.68804538553,34.31557090282312
202219.87467728244,35.13615938157156
204987.68276382392,36.11317703776345
207896.71084859938,37.23600265968494
210917.108366915,38.47965909472724
214017.881952982,39.80554290605657
217167.2134737902,41.16471588751432
220332.78652620976,42.503355103112035
223482.118047018,43.76932828268205
226582.891633085,44.91851525044075
229603.28915140062,45.91956484122519
232512.31723617608,46.75622673897498
235280.1253227176,47.42706309801579
237878.31195461444,47.94298314556782
240280.2162211152,48.323463207477126
242461.1913341497,48.59242033457783
244398.8575377274,48.774543897269695
246073.3317545182,48.8925717276701
247467.4316131322,48.965661057922205
248566.85176250152,49.008741433340155
249360.31066414044,49.032583359665836
249839.6663559967,49.04426454531529
250000.0,49.04773713486286
250000.0,49.04773713486286
250160.3336440033,49.050998491026114
250639.68933585956,49.05952887922845
251433.14823749848,49.06986678251281
252532.5683868678,49.077219139834185
253926.66824548182,49.076840502874916
255601.1424622726,49.06577251141462
257538.8086658503,49.04471901682049
259719.7837788848,49.019755019496024
262121.68804538553,49.003522685946216
264719.8746772824,49.01557819852614
267487.68276382395,49.081625198300124
270396.7108485994,49.23149430564292
273417.10836691497,49.495894667689335
276517.881952982,49.90218457850219
279667.2134737902,50.469694092499644
282832.7865262098,51.205446890419545
285982.118047018,52.10131913190779
289082.89163308503,53.133553510004745
292103.2891514006,54.2650186749847
295012.31723617605,55.44982637315389
297780.1253227176,56.63922531098114
300378.3119546145,57.787392973445726
302780.2162211152,58.85593250099352
304961.1913341497,59.816403072387395
306898.8575377274,60.65081271616231
308573.3317545182,61.35046675320417
309967.4316131322,61.913793876444814
311066.8517625015,62.34377912096748
311860.31066414044,62.64549908159152
312339.66635599674,62.824069483137684
312500.0,62.88315322120838
312500.0,62.88315322120838
312660.33364400326,62.94190858338717
313139.68933585956,63.11558134971894
313933.1482374985,63.396319107681
315032.5683868678,63.77085817132018
316426.6682454818,64.22047546618597
318101.1424622726,64.72130908800949
320038.80866585026,65.24532605944566
322219.7837788848,65.7621357406682
324621.6880453855,66.24166663789966
327219.8746772824,66.65746721735745
329987.68276382395,66.99013127333365
332896.7108485994,67.23018080410606
335917.10836691497,67.37975162162265
339017.881952982,67.45264187994317
342167.2134737902,67.47263443978709
345332.7865262098,67.47036038781978
348482.118047018,67.47921338775092
351582.89163308503,67.5309167589018
354603.2891514006,67.65133840491431
357512.31723617605,67.85711059406498
360280.1253227176,68.15354572270971
362878.3119546145,68.53418458158764
365280.2162211152,68.98202926914479
367461.1913341497,69.47215308866133
369398.8575377274,69.97508480699317
371073.3317545182,70.46026083744722
372467.4316131322,70.89895679655291
373566.8517625015,71.26637280045846
374360.31066414044,71.54283451883497
374839.66635599674,71.71428732855463
375000.0,71.77236232301499
375000.0,71.77236232301499
375160.33364400326,71.83079712869504
375639.68933585956,72.00761641596343
376433.1482374985,72.30706858492755
377532.5683868678,72.73523487544504
378926.6682454818,73.29850621307754
380601.1424622726,74.00146470690603
382538.80866585026,74.8443128955638
384719.7837788848,75.82017426556695
387121.6880453855,76.91278763531561
389719.8746772824,78.09525000237078
392487.68276382395,79.3304266939784
395396.7108485994,80.57337875287743
398417.10836691497,81.7756797816479
401517.881952982,82.8909430198383
404667.2134737902,83.88045397843676
407832.7865262098,84.71769247554468
410982.118047018,85.39079261379406
414082.89163308503,85.90254396973421
417103.2891514006,86.26816605507267
420012.31723617605,86.51156827952524
422780.1253227176,86.66100210703806
425378.3119546145,86.74493273517649
427780.2162211152,86.78871596402752
429961.1913341497,86.8123898938034
431898.8575377274,86.82965748685872
433573.3317545182,86.8479618375737
434967.4316131322,86.86943229571544
436066.8517625015,86.89240106485263
436860.31066414044,86.9131609402414
437339.66635599674,86.92765621990962
437500.0,86.93285853451117
437500.0,86.93285853451117
437660.33364400326,86.9382453989256
438139.68933585956,86.95549355853271
438933.1482374985,86.98805432507825
440032.5683868678,87.04226335700312
441426.6682454818,87.12805613934916
443101.1424622726,87.25965303099886
445038.80866585026,87.45590697733641
447219.7837788848,87.73995443300704
449621.6880453855,88.13781829515547
452219.8746772824,88.67572985173142
454987.68276382395,89.3762075062956
457896.7108485994,90.25335302643866
460917.10836691497,91.30829693999813
464017.881952982,92.52603701184235
467167.2134737902,93.87483321283281
470332.7865262098,95.30875038940434
473482.118047018,96.77303370658782
476582.89163308503,98.21113047624854
479603.2891514006,99.57171268968717
482512.31723617605,100.81417578521746
485280.1253227176,101.91167952965202
487878.3119546145,102.851566014094
490280.2162211152,103.63363626704441
492461.1913341497,104.2671160116726
494398.8575377274,104.76717461144919
496073.3317545182,105.15167296698512
497467.4316131322,105.43853798026493
498566.8517625015,105.64390010690603
499360.31066414044,105.78093990145591
499839.66635599674,105.85928307788308
500000.0,105.88474970609397
500000.0,105.88474970609397
500160.33364400326,105.9098497072484
500639.68933585956,105.98272428539723
501433.1482374985,106.09632703573375
502532.5683868678,106.23968777971531
503926.6682454818,106.39908894826328
505601.1424622726,106.55970813381686
507538.80866585026,106.70765466614284
509719.7837788848,106.8322447249783
512121.6880453855,106.92827388466587
514719.8746772824,106.99797964975548
517487.68276382395,107.0523491647046
520396.7108485994,107.11141596051361
523417.10836691497,107.2032090485061
526517.8819529819,107.36110810512515
529667.2134737902,107.61959283592049
532832.7865262098,108.00879810438246
535982.1180470181,108.54881898603016
539082.891633085,109.24510808608804
542103.2891514007,110.08627824122847
545012.3172361761,111.04503705488911
547780.1253227176,112.08203296821
550378.3119546145,113.15151643020816
552780.2162211152,114.20730706157768
554961.1913341497,115.2077224705515
556898.8575377273,116.1186853271685
558573.3317545182,116.91487257008316
559967.4316131322,117.57925823542257
561066.8517625015,118.10163337216513
561860.3106641405,118.47669655243898
562339.6663559967,118.70218971592959
562500.0,118.77739729431376
562500.0,118.77739729431376
562660.3336440033,118.85248874336031
563139.6893358595,119.07625008046686
563933.1482374985,119.44389881534032
565032.5683868678,119.94671987036706
566426.6682454818,120.57118053045926
568101.1424622727,121.29813332271758
570038.8086658503,122.10248206633325
572219.7837788848,122.95366807293219
574621.6880453855,123.81719907656161
577219.8746772824,124.65720367384665
579987.6827638239,125.43970144105005
582896.7108485993,126.13604261411112
585917.108366915,126.72588910181987
589017.8819529819,127.19922004819631
592167.2134737902,127.557094357833
595332.7865262098,127.8111552787216
598482.1180470181,127.98200700943212
601582.891633085,128.0966198823671
604603.2891514007,128.1849304313844
607512.3172361761,128.2759128487292
610280.1253227176,128.39361845390664
612878.3119546145,128.55387660140767
615280.2162211152,128.76234457667528
617461.1913341497,129.0143108202787
619398.8575377273,129.29619708478174
621073.3317545182,129.58827697445955
622467.4316131322,129.86791516626792
623566.8517625015,130.11267306156464
624360.3106641405,130.3028481599514
624839.6663559967,130.42328530948888
625000.0,130.46450416078142
625000.0,130.46450416078142
625160.3336440033,130.50619241359846
625639.6893358595,130.63363049670812
626433.1482374985,130.85379628121393
627532.5683868678,131.17778691345697
628926.6682454818,131.6198323939168
630601.1424622727,132.19561031937837
632538.8086658503,132.91972631144128
634719.7837788848,133.80241950007826
637121.6880453855,134.84586912994635
639719.8746772824,136.04083316423848
642487.6827638239,137.36458269439686
645396.7108485993,138.781027279968
648417.108366915,140.24346714266068
651517.8819529819,141.69965838483765
654667.2134737902,143.09812602286797
657832.7865262098,144.39424623822322
660982.1180470181,145.55474223611742
664082.891633085,146.55982801968426
667103.2891514007,147.40299828346411
670012.3172361761,148.08906331695746
672780.1253227176,148.63125982999844
675378.3119546145,149.0481568382889
677780.2162211152,149.3608065051606
679961.1913341497,149.59034923089564
681898.8575377273,149.7561610806412
683573.3317545182,149.87459865090565
684967.4316131322,149.95837407308562
686066.8517625015,150.01653195335481
686860.3106641405,150.05490684506273
687339.6663559967,150.0768546150494
687500.0,150.08401153670422
687500.0,150.08401153670422
687660.3336440033,150.09108290054056
688139.6893358595,150.11175487612465
688933.1482374985,150.14467040473082
690032.5683868678,150.1884512716242
691426.6682454818,150.24296784395588
693101.1424622727,150.31098126791738
695038.8086658503,150.39996498564545
697219.7837788848,150.5237791019615
699621.6880453855,150.70370757117382
702219.8746772824,150.96823054930803
704987.6827638239,151.35091112979515
707896.7108485993,151.88606035997128
710917.108366915,152.60248585201143
714017.8819529819,153.51649827270683
717167.2134737902,154.626071997043
720332.7865262098,155.908156285298
723482.1180470181,157.32035221240076
726582.891633085,158.80674137757293
729603.2891514007,160.30623804922666
732512.3172361761,161.76112041932
735280.1253227176,163.12364798843248
737878.3119546145,164.35962866932147
740280.2162211152,165.44891463249945
742461.1913341497,166.3836050450324
744398.8575377273,167.16502908791927
746073.3317545182,167.80045461531938
747467.4316131322,168.3001387493824
748566.8517625015,168.67499318195294
749360.3106641405,168.9348994125536
749839.6663559967,169.0875831729147
750000.0,169.13792300875383
750000.0,169.13792300875383
750160.3336440033,169.18789712153938
750639.6893358595,169.3351257494131
751433.1482374985,169.57165107413496
752532.5683868678,169.88464170837452
753926.6682454818,170.25709505238012
755601.1424622727,170.6688883697615
757538.8086658503,171.09816894250235
759719.7837788848,171.5230138706708
762121.6880453855,171.92325415956878
764719.8746772824,172.2823732915428
767487.6827638239,172.5894404586956
770396.7108485993,172.84104667527603
773417.108366915,173.0430838606654
776517.8819529819,173.21192159306034
779667.2134737902,173.3742309874116
782832.7865262098,173.5646555297151
785982.1180470181,173.8209770157385
789082.891633085,174.17734586684932
792103.2891514007,174.65714566910674
795012.3172361761,175.26755604791123
797780.1253227176,175.99748662753612
800378.3119546145,176.8194017043873
802780.2162211152,177.6942210653594
804961.1913341497,178.577617094756
806898.8575377273,179.42594178164015
808573.3317545182,180.2005657742677
809967.4316131322,180.87019863570168
811066.8517625015,181.41141742606118
811860.3106641405,181.8079870484135
812339.6663559967,182.04962499252113
812500.0,182.13075538717504
812500.0,182.13075538717504
812660.3336440033,182.2120295414328
813139.6893358595,182.45581198550863
813933.1482374985,182.8615757171729
815032.5683868678,183.4271429273678
816426.6682454818,184.14694943024946
818101.1424622727,185.01007896554117
820038.8086658503,185.99856917241613
822219.7837788848,187.08658413982909
824621.6880453855,188.24097816771354
827219.8746772824,189.42347709372493
829987.6827638239,190.59421315724236
832896.7108485993,191.71583880003953
835917.108366915,192.75716842831542
839017.8819529819,193.69545073327737
842167.2134737902,194.51694389551366
845332.7865262098,195.21616985278504
848482.1180470181,195.7946550256944
851582.891633085,196.25986993365666
854603.2891514007,196.62454202609527
857512.3172361761,196.90593573567048
860280.1253227176,197.12449076291963
862878.3119546145,197.3015200746625
865280.2162211152,197.45626259381194
867461.1913341497,197.60305975376286
869398.8575377273,197.74949699714577
871073.3317545182,197.89602012352898
872467.4316131322,198.03702516047386
873566.8517625015,198.1629988627773
874360.3106641405,198.26309950311673
874839.6663559967,198.32761462698636
875000.0,198.34990335864688
875000.0,198.34990335864688
875160.3336440033,198.37255633006927
875639.6893358595,198.44250423971351
876433.1482374985,198.5658848487047
877532.5683868678,198.75341669452868
878926.6682454818,199.02084803077517
880601.1424622727,199.38901589129344
882538.8086658503,199.88298742065913
884719.7837788848,200.52975780722
887121.6880453855,201.3542162877243
889719.8746772824,202.37362409632914
892487.6827638239,203.5916034110735
895396.7108485993,204.99332457743378
898417.108366915,206.54377349003676
901517.8819529819,208.19035688129736
904667.2134737902,209.8697314545039
907832.7865262098,211.5171806700399
910982.1180470181,213.07588688148553
914082.891633085,214.5035722853534
917103.2891514007,215.775127159076
920012.3172361761,216.88138905751714
922780.1253227176,217.82542739097755
925378.3119546145,218.6180639032247
927780.2162211152,219.27397835646613
929961.1913341497,219.80899861437607
931898.8575377273,220.23851755633456
933573.3317545182,220.57666292851084
934967.4316131322,220.83584681511746
936066.8517625015,221.02647669297977
936860.3106641405,221.1567566274492
937339.6663559967,221.23257266097488
937500.0,221.25745334586418
937500.0,221.25745334586418
937660.3336440033,221.28209663618063
938139.6893358595,221.35437150636952
938933.1482374985,221.46947094015883
940032.5683868678,221.61991072658302
941426.6682454818,221.79633075454453
943101.1424622727,221.98865741353904
945038.8086658503,222.18769595608802
947219.7837788848,222.38722898280227
949621.6880453855,222.5866103509259
952219.8746772824,222.79359337465291
954987.6827638239,223.02671607234802
957896.7108485993,223.31612910105514
960917.108366915,223.7016020725746
964017.8819529819,224.2269215812526
967167.2134737902,224.93110561158662
970332.7865262098,225.83842148662708
973482.1180470181,226.95030630901567
976582.891633085,228.24212946878828
979603.2891514007,229.66614959699737
982512.3172361761,231.15971795556086
985280.1253227176,232.6559579859203
987878.3119546145,234.09366643269334
990280.2162211152,235.4240516367337
992461.1913341497,236.6134675311116
994398.8575377273,237.64269147011106
996073.3317545182,238.50403796426502
997467.4316131322,239.19766247037813
998566.8517625015,239.72804631278686
999360.3106641405,240.10117562468923
999839.6663559967,240.32254438938784
1000000.0,240.39589489801725
