Time (s),Error (km)
0.0,0.0
160.3336440032764,0.12585477389082414
639.6893358595473,2.559566610211998
1433.1482374984744,50.573995336750485
2532.568386867794,350.56892819447313
3926.6682454818097,1621.9068986731486
5601.142462272616,3017.9910539509015
7538.8086658502825,25466.168015008057
9719.783778884792,63640.113126294345
12121.688045385534,130137.39911265766
14719.874677282425,175632.49625536145
17487.682763823923,247457.4091591736
20396.710848599367,301684.97951233055
23417.108366914985,379511.7882507613
26517.881952981978,435672.074333382
29667.21347379022,518828.61524001975
32832.78652620977,575325.9773869466
35982.11804701802,657180.672562598
39082.89163308501,715674.1120341282
42103.28915140063,790373.6156764738
45012.31723617607,847959.3089534602
47780.125322717584,916232.6724058504
50378.31195461445,964394.6078956912
52780.216221115195,1029676.4165542347
54961.19133414971,1065273.242480262
56898.85753772739,1113679.5198521356
58573.33175451819,1157616.289767705
59967.431613132205,1180395.7232614066
61066.85176250152,1199166.5090733694
61860.31066414045,1218189.5698923508
62339.66635599672,1231722.455518721
62500.0,1236439.023031817
62500.0,1236439.023031817
62660.33364400328,1241192.5455111295
63139.68933585955,1255255.694578411
63933.14823749848,1276134.7973940326
65032.568386867795,1297216.0514895294
66426.66824548181,1318666.336829255
68101.14246227262,1359218.7992396676
70038.80866585029,1410984.909381514
72219.7837788848,1446442.0404048695
74621.68804538553,1509036.821920544
77219.87467728242,1561274.2110489768
79987.68276382392,1624968.9392043988
82896.71084859937,1687136.2875999883
85917.10836691498,1757402.3488949772
89017.88195298197,1819683.449868491
92167.21347379022,1898610.6552121514
95332.78652620976,1956562.2291877298
98482.11804701801,2039591.4903091926
101582.891633085,2094427.4055435376
104603.28915140063,2174297.7074750033
107512.31723617608,2225901.019058006
110280.12532271759,2299865.7603989947
112878.31195461444,2343792.824877849
115280.2162211152,2409928.998622994
117461.19133414971,2449629.405196549
119398.8575377274,2490428.6557583204
121073.33175451819,2538093.8641518597
122467.43161313221,2565597.6992633473
123566.85176250152,2582122.6587411836
124360.31066414044,2597446.803530923
124839.66635599671,2609131.7433554614
125000.0,2613418.820157615
125000.0,2613418.820157615
125160.33364400327,2617862.3040499077
125639.68933585954,2631785.615106345
126433.14823749848,2654860.8456849507
127532.56838686779,2680867.0941684074
128926.66824548181,2702945.038408116
130601.14246227262,2736516.8191018538
132538.8086658503,2791358.694560735
134719.7837788848,2830506.485186893
137121.68804538553,2885515.646897758
139719.87467728244,2946385.5399094615
142487.68276382392,3001401.8626876967
145396.71084859938,3072186.198026439
148417.108366915,3133733.177877891
151517.881952982,3204588.233074667
154667.2134737902,3275650.288440272
157832.78652620976,3339915.3035940994
160982.118047018,3418754.279042842
164082.891633085,3475497.1606846643
167103.28915140062,3555255.050491077
170012.31723617608,3606023.9409466335
172780.1253227176,3680527.935621549
175378.31195461444,3725648.478542475
177780.2162211152,3787419.105735428
179961.1913341497,3834600.802785971
181898.8575377274,3868660.5314124925
183573.3317545182,3915770.5108597083
184967.4316131322,3949303.139626432
186066.85176250152,3966686.220052333
186860.31066414044,3979218.621664353
187339.6663559967,3988636.6662587803
187500.0,3992200.56087534
187500.0,3992200.56087534
187660.3336440033,3995976.163217521
188139.68933585956,4008425.653432394
188933.14823749848,4031470.841516553
190032.5683868678,4061711.154774906
191426.66824548182,4087888.052297241
193101.1424622726,4115887.532230048
195038.8086658503,4168994.3529958082
197219.7837788848,4215423.119855917
199621.68804538553,4262109.854532176
202219.87467728244,4330207.204413057
204987.68276382392,4379024.396521886
207896.71084859938,4455805.952320496
210917.108366915,4510728.017032298
214017.881952982,4589197.311089664
217167.2134737902,4651826.301620402
220332.78652620976,4724644.482556478
223482.118047018,4795625.900599851
226582.891633085,4858943.781177924
229603.28915140062,4933419.64264218
232512.31723617608,4988713.895171264
235280.1253227176,5058456.263245326
237878.31195461444,5109638.585102855
240280.2162211152,5163597.766303878
242461.1913341497,5218644.54353835
244398.8575377274,5249451.152958793
246073.3317545182,5291988.563441129
247467.4316131322,5330456.393435465
248566.85176250152,5351433.62052237
249360.31066414044,5363158.930047858
249839.6663559967,5370780.8206575485
250000.0,5373615.80367968
250000.0,5373615.80367968
250160.3336440033,5376633.927771349
250639.68933585956,5386878.316110377
251433.14823749848,5407699.859365692
252532.5683868678,5439806.104165243
253926.66824548182,5471905.184776513
255601.1424622726,5497907.530522811
257538.8086658503,5545197.087978839
259719.7837788848,5599588.694675144
262121.68804538553,5640500.464912447
264719.8746772824,5711564.8357091155
267487.68276382395,5759081.19374898
270396.7108485994,5836885.056577975
273417.10836691497,5889872.846066288
276517.881952982,5971986.385798327
279667.2134737902,6028950.872658393
282832.7865262098,6109157.020875736
285982.118047018,6171734.755197439
289082.89163308503,6243664.433385646
292103.2891514006,6309796.764069566
295012.31723617605,6373155.125552821
297780.1253227176,6434740.090806593
300378.3119546145,6494430.832235323
302780.2162211152,6540238.092673077
304961.1913341497,6600413.233550754
306898.8575377274,6632715.062955866
308573.3317545182,6668498.132966746
309967.4316131322,6708855.259238045
311066.8517625015,6734726.109669766
311860.31066414044,6747941.079827564
312339.66635599674,6754941.02658458
312500.0,6757327.2579057515
312500.0,6757327.2579057515
312660.33364400326,6759796.132723144
313139.68933585956,6767978.301657619
313933.1482374985,6785281.999584943
315032.5683868678,6816152.251344447
316426.6682454818,6853645.950079842
318101.1424622726,6881996.512764074
320038.80866585026,6921709.471890556
322219.7837788848,6981587.127439874
324621.6880453855,7021535.529456802
327219.8746772824,7090157.0308223795
329987.68276382395,7141753.754146606
332896.7108485994,7215227.442820106
335917.10836691497,7271705.642254415
339017.881952982,7352075.50313041
342167.2134737902,7408366.076321268
345332.7865262098,7491878.18922858
348482.118047018,7548832.903666009
351582.89163308503,7627993.818871827
354603.2891514006,7686030.822261745
357512.31723617605,7757788.513989919
360280.1253227176,7811056.791258285
362878.3119546145,7878326.086949257
365280.2162211152,7918862.579023313
367461.1913341497,7979414.781172209
369398.8575377274,8017349.054271729
371073.3317545182,8046871.460852078
372467.4316131322,8085335.638491749
373566.8517625015,8115462.065504567
374360.31066414044,8131864.227894735
374839.66635599674,8139659.881424399
375000.0,8142053.5988319
375000.0,8142053.5988319
375160.33364400326,8144396.714325137
375639.68933585956,8151467.634244351
376433.1482374985,8165353.374624214
377532.5683868678,8192392.407360611
378926.6682454818,8232623.822617487
380601.1424622726,8266722.532772943
382538.80866585026,8300096.37712864
384719.7837788848,8360827.155442238
387121.6880453855,8404977.387274098
389719.8746772824,8466735.473103872
392487.68276382395,8526160.529007146
395396.7108485994,8591680.812471597
398417.10836691497,8655671.41360158
401517.881952982,8729622.137729995
404667.2134737902,8790465.235992592
407832.7865262098,8871920.939863889
410982.118047018,8928235.381541088
414082.89163308503,9010399.71377774
417103.2891514006,9063784.82044429
420012.31723617605,9140957.697014203
422780.1253227176,9189033.389900325
425378.3119546145,9259963.235746207
427780.2162211152,9300169.687662916
429961.1913341497,9356225.98557015
431898.8575377274,9401690.822282152
433573.3317545182,9427904.984445987
434967.4316131322,9461464.074846908
436066.8517625015,9493533.59761702
436860.31066414044,9513553.276820792
437339.66635599674,9523241.915064411
437500.0,9526095.354626162
437500.0,9526095.354626162
437660.33364400326,9528785.09871541
438139.68933585956,9536130.984792974
438933.1482374985,9548036.90703105
440032.5683868678,9570178.849830985
441426.6682454818,9609421.89368454
443101.1424622726,9650385.839786327
445038.80866585026,9681145.257845651
447219.7837788848,9737787.417244967
449621.6880453855,9789626.588048236
452219.8746772824,9842823.115330927
454987.68276382395,9910723.207500584
457896.7108485994,9967815.624230117
460917.10836691497,10040363.393865688
464017.881952982,10105766.11543194
467167.2134737902,10174569.54487041
470332.7865262098,10249443.412544524
473482.118047018,10310319.49557291
476582.89163308503,10390104.983048074
479603.2891514006,10444089.034844402
482512.31723617605,10521580.69378397
485280.1253227176,10569609.88101278
487878.3119546145,10638868.376613636
490280.2162211152,10683785.202550618
492461.1913341497,10732268.941970604
494398.8575377274,10784187.29808804
496073.3317545182,10811330.305200698
497467.4316131322,10838922.752035314
498566.8517625015,10869867.831098717
499360.31066414044,10892512.218813831
499839.66635599674,10904437.93491803
500000.0,10908019.220936866
500000.0,10908019.220936866
500160.33364400326,10911388.753051197
500639.68933585956,10920282.787835548
501433.1482374985,10932419.216175113
502532.5683868678,10950523.391704323
503926.6682454818,10985465.119997201
505601.1424622726,11031704.057043029
507538.80866585026,11064579.489792941
509719.7837788848,11113828.311215576
512121.6880453855,11173801.71563155
514719.8746772824,11220115.226948688
517487.68276382395,11293797.063578954
520396.7108485994,11345306.21888349
523417.10836691497,11424083.362236446
526517.8819529819,11482182.80452895
529667.2134737902,11559207.882431135
532832.7865262098,11625582.30010229
535982.1180470181,11694399.937814739
539082.891633085,11767390.887687327
542103.2891514007,11826952.099817889
545012.3172361761,11899577.488931483
547780.1253227176,11952687.336819205
550378.3119546145,12015635.17673487
552780.2162211152,12068425.840274177
554961.1913341497,12109250.282608928
556898.8575377273,12164016.724808574
558573.3317545182,12195937.483549325
559967.4316131322,12218842.778729083
561066.8517625015,12246060.672120787
561860.3106641405,12269312.504864069
562339.6663559967,12282940.680434365
562500.0,12287230.201296614
562500.0,12287230.201296614
562660.3336440033,12291342.944180582
563139.6893358595,12302440.032064201
563933.1482374985,12316917.713362327
565032.5683868678,12333415.108280089
566426.6682454818,12362457.91650309
568101.1424622727,12410321.294404006
570038.8086658503,12449184.47270087
572219.7837788848,12490655.17790306
574621.6880453855,12556009.737615187
577219.8746772824,12599806.52213611
579987.6827638239,12674329.224332405
582896.7108485993,12725266.834933454
585917.108366915,12805520.161370428
589017.8819529819,12860417.987758098
592167.2134737902,12942699.138186513
595332.7865262098,13002003.391457953
598482.1180470181,13079008.78838732
601582.891633085,13143477.940885108
604603.2891514007,13211377.652628956
607512.3172361761,13275891.152425738
610280.1253227176,13337185.756035222
612878.3119546145,13391684.717832364
615280.2162211152,13452406.769416995
617461.1913341497,13488482.78222465
619398.8575377273,13541405.650376435
621073.3317545182,13580054.019511389
622467.4316131322,13601371.035830524
623566.8517625015,13623743.940190822
624360.3106641405,13645360.947166242
624839.6663559967,13659494.692151485
625000.0,13664196.448973997
625000.0,13664196.448973997
625160.3336440033,13668825.06484571
625639.6893358595,13681912.327400308
626433.1482374985,13699907.020895334
627532.5683868678,13717844.402213734
628926.6682454818,13741706.642914096
630601.1424622727,13786937.078445902
632538.8086658503,13833288.185451671
634719.7837788848,13869640.317878937
637121.6880453855,13935539.845860392
639719.8746772824,13982131.182433452
642487.6827638239,14052269.714019421
645396.7108485993,14107825.364241652
648417.108366915,14184267.647070676
651517.8819529819,14241278.469412915
654667.2134737902,14323821.710831868
657832.7865262098,14380239.90855985
660982.1180470181,14462474.609858258
664082.891633085,14520041.954088563
667103.2891514007,14595761.16697868
670012.3172361761,14652111.27139647
672780.1253227176,14721472.594422556
675378.3119546145,14768702.505211938
677780.2162211152,14834310.23895159
679961.1913341497,14870375.437923962
681898.8575377273,14917527.608672911
683573.3317545182,14962207.700832464
684967.4316131322,14985633.621894885
686066.8517625015,15003939.082306435
686860.3106641405,15022342.297225386
687339.6663559967,15035595.567853654
687500.0,15040254.594096065
687500.0,15040254.594096065
687660.3336440033,15044972.155296942
688139.6893358595,15059063.15772512
688933.1482374985,15080365.498582333
690032.5683868678,15102204.748739108
691426.6682454818,15123612.434345596
693101.1424622727,15163022.708848454
695038.8086658503,15215423.563256053
697219.7837788848,15251287.82798401
699621.6880453855,15312732.667180127
702219.8746772824,15366292.507056748
704987.6827638239,15428576.967786063
707896.7108485993,15492094.427284261
710917.108366915,15560970.837233495
714017.8819529819,15624533.15946307
717167.2134737902,15702292.442464082
720332.7865262098,15761088.719390571
723482.1180470181,15843586.0059739
726582.891633085,15898548.639639553
729603.2891514007,15978522.904117508
732512.3172361761,16029843.572976574
735280.1253227176,16104007.278492555
737878.3119546145,16147969.469288416
740280.2162211152,16213545.475603068
742461.1913341497,16254294.922995195
744398.8575377273,16294036.297481142
746073.3317545182,16341708.922046233
747467.4316131322,16370086.624552049
748566.8517625015,16386670.079622244
749360.3106641405,16401550.663844293
749839.6663559967,16412897.211874815
750000.0,16417079.538377058
750000.0,16417079.538377058
750160.3336440033,16421428.09680953
750639.6893358595,16435153.530870236
751433.1482374985,16458270.530829892
752532.5683868678,16484926.023419995
753926.6682454818,16507535.942628462
755601.1424622727,16540238.14017268
757538.8086658503,16594908.417887075
759719.7837788848,16635057.507314121
762121.6880453855,16688832.37987346
764719.8746772824,16750784.913129773
767487.6827638239,16804833.335241605
770396.7108485993,16876527.348130625
773417.108366915,16937061.029180415
776517.8819529819,17009022.842292048
779667.2134737902,17078861.80678798
782832.7865262098,17144316.294938993
785982.1180470181,17222064.769631725
789082.891633085,17279679.36051981
792103.2891514007,17358733.240511443
795012.3172361761,17410075.812966328
797780.1253227176,17483950.429566134
800378.3119546145,17529866.48114078
802780.2162211152,17590566.52860407
804961.1913341497,17638827.04682054
806898.8575377273,17672410.06727875
808573.3317545182,17718908.47616614
809967.4316131322,17753123.010551363
811066.8517625015,17770976.465641778
811860.3106641405,17783388.583907243
812339.6663559967,17792557.27012501
812500.0,17796020.639255118
812500.0,17796020.639255118
812660.3336440033,17799692.113745306
813139.6893358595,17811840.779423945
813933.1482374985,17834590.060335316
815032.5683868678,17865095.35347762
816426.6682454818,17892061.2190933
818101.1424622727,17919774.87965703
820038.8086658503,17972099.935984593
822219.7837788848,18019591.801044688
824621.6880453855,18065491.93033006
827219.8746772824,18133985.323197473
829987.6827638239,18182618.341974676
832896.7108485993,18259525.80885063
835917.108366915,18314188.52560181
839017.8819529819,18393118.45504215
842167.2134737902,18455007.26035008
845332.7865262098,18528770.78450496
848482.1180470181,18598657.23290025
851582.891633085,18663085.26575733
854603.2891514007,18736467.690705385
857512.3172361761,18792806.14132645
860280.1253227176,18861481.649884067
862878.3119546145,18913749.168110017
865280.2162211152,18966678.076527636
867461.1913341497,19022332.00181325
869398.8575377273,19053373.312473733
871073.3317545182,19095042.789375864
872467.4316131322,19133706.867480785
873566.8517625015,19155297.47695928
874360.3106641405,19167233.495622158
874839.6663559967,19174794.70154585
875000.0,19177578.173785076
875000.0,19177578.173785076
875160.3336440033,19180531.32592711
875639.6893358595,19190522.704539843
876433.1482374985,19210892.713622972
877532.5683868678,19242804.732633907
878926.6682454818,19275551.545526337
880601.1424622727,19301899.383772213
882538.8086658503,19348237.157512017
884719.7837788848,19403249.16846157
887121.6880453855,19444119.093888104
889719.8746772824,19514793.279698633
892487.6827638239,19562887.132149294
895396.7108485993,19640070.012411024
898417.108366915,19693570.695725784
901517.8819529819,19775361.198738344
904667.2134737902,19832348.276825298
907832.7865262098,19912837.717665236
910982.1180470181,19974827.772030838
914082.891633085,20047544.421227153
917103.2891514007,20112757.29273525
920012.3172361761,20177068.55249172
922780.1253227176,20237709.357873343
925378.3119546145,20298215.5713344
927780.2162211152,20343517.01800394
929961.1913341497,20403589.688374307
931898.8575377273,20436634.646500822
933573.3317545182,20471741.507678676
934967.4316131322,20511770.56622972
936066.8517625015,20538083.83598396
936860.3106641405,20551697.526869077
937339.6663559967,20558830.030289263
937500.0,20561232.23536492
937500.0,20561232.23536492
937660.3336440033,20563701.576615732
938139.6893358595,20571794.370958533
938933.1482374985,20588727.65611813
940032.5683868678,20619094.371091373
941426.6682454818,20656793.257567815
943101.1424622727,20685874.830451816
945038.8086658503,20724947.514104944
947219.7837788848,20784749.341747325
949621.6880453855,20825329.19953394
952219.8746772824,20893054.47107621
954987.6827638239,20945614.063485414
957896.7108485993,21018108.670290995
960917.108366915,21075525.73552577
964017.8819529819,21155034.258480337
967167.2134737902,21212008.707860827
970332.7865262098,21295072.930888254
973482.1180470181,21352179.329202697
976582.891633085,21431443.861804605
979603.2891514007,21489173.474234775
982512.3172361761,21561320.264538392
985280.1253227176,21614226.44739706
987878.3119546145,21681655.82169244
990280.2162211152,21722407.021391876
992461.1913341497,21782271.997865207
994398.8575377273,21821024.369953185
996073.3317545182,21850384.74164794
997467.4316131322,21888218.91346491
998566.8517625015,21918405.535645906
999360.3106641405,21935171.758450914
999839.6663559967,21943204.31362563
1000000.0,21945665.769329756
